simulation time [sec],battery current [A],battery soc [%],Socket,Crimp,Coolant,Overmold
0,0,0.1,0,0,0,0
1,9.4157,0.1,0,0,0,0
2,20.795,0.10001,9.30E-05,6.71E-05,0,0
3,48.559,0.10006,0.00054589,0.000394289,0,7.48E-05
4,77.462,0.10014,0.00301549,0.002178155,1.06E-07,0.000407965
5,106.56,0.10025,0.009291977,0.006713225,7.31E-07,0.002255963
6,135.7,0.1004,0.021152079,0.015285762,4.18E-06,0.006530546
7,164.46,0.10059,0.040355998,0.029171589,1.48E-05,0.014279179
8,193.29,0.10082,0.068517342,0.049542139,3.90E-05,0.026480027
9,221.85,0.10108,0.107355286,0.077646417,8.50E-05,0.044023696
10,250.13,0.10138,0.158435033,0.114623671,0.000163187,0.067923945
11,278.13,0.10171,0.223260404,0.161570109,0.000285548,0.099019747
12,305.86,0.10208,0.303278079,0.219541911,0.000465984,0.138175558
13,333.3,0.10248,0.399884785,0.289560367,0.000720038,0.18620016
14,360.48,0.10292,0.514409362,0.372598874,0.001064857,0.243886627
15,387.38,0.10339,0.648146794,0.469607457,0.00151913,0.311980988
16,413.2,0.10389,0.802325052,0.581488786,0.002103005,0.391222803
17,412.31,0.10442,0.977424908,0.708606929,0.002838041,0.482301303
18,412.92,0.10494,1.150901275,0.834698336,0.003747132,0.5853262
19,412.86,0.10546,1.324060165,0.960704221,0.004853646,0.682112922
20,414.32,0.10598,1.496323388,1.08620625,0.006155072,0.781396666
21,416.6,0.1065,1.669013472,1.212158189,0.007650377,0.879026329
22,421.91,0.10703,1.84284844,1.33907839,0.009337869,0.977816826
23,427.33,0.10757,2.020504681,1.468900034,0.011217374,1.077158062
24,435.19,0.10811,2.202121258,1.60172625,0.013289543,1.179462159
25,444.1,0.10866,2.389960891,1.739193862,0.015558088,1.283824186
26,453.86,0.10923,2.585099459,1.882084528,0.01802687,1.392449935
27,463.03,0.10981,2.788476069,2.031082028,0.020702326,1.505277763
28,471.7,0.1104,2.99967711,2.185894061,0.023592107,1.623093768
29,482.21,0.111,3.218345962,2.346269109,0.026704909,1.74523811
30,494.47,0.11161,3.44646085,2.513641422,0.030048931,1.8717073
31,504.18,0.11224,3.68601869,2.689460399,0.033631932,2.004100654
32,513.05,0.11288,3.934576151,2.871970608,0.03746391,2.143356292
33,524.36,0.11354,4.191382652,3.060636925,0.041557112,2.287117456
34,537.78,0.11421,4.459239634,3.257488633,0.045920954,2.435781309
35,553.79,0.11489,4.740736242,3.464404054,0.050563956,2.591441767
36,571.78,0.1156,5.039184299,3.683785544,0.055497813,2.755305663
37,590.91,0.11634,5.357408574,3.9176865,0.060737145,2.929537783
38,610.06,0.11709,5.697402571,4.167562366,0.066300317,3.11550855
39,628.02,0.11787,6.059853187,4.433926657,0.072208865,3.314256407
40,644.08,0.11868,6.443851381,4.716140911,0.078486536,3.52590974
41,655.75,0.1195,6.84739864,5.012779072,0.085157785,3.74969712
42,662.85,0.12033,7.264883822,5.319804499,0.092245942,3.984349847
43,667.81,0.12117,7.690150612,5.632782053,0.09977197,4.225899502
44,670.7,0.12201,8.120265243,5.949598488,0.107750339,4.471075847
45,668.63,0.12285,8.552339915,6.268171248,0.116188414,4.718904853
46,668.48,0.1237,8.979402514,6.58346587,0.125090174,4.967476709
47,668.64,0.12454,9.40417396,6.89744174,0.134456274,5.211985649
48,668.07,0.12538,9.82710001,7.210417581,0.144279386,5.456649658
49,667.62,0.12623,10.24716649,7.521658223,0.154555311,5.700044213
50,667.29,0.12707,10.66455601,7.831291888,0.16528038,5.941950942
51,666.91,0.12791,11.07944992,8.139446072,0.176449774,6.182606696
52,666.51,0.12875,11.49179068,8.446075922,0.1880589,6.422054641
53,666.15,0.12959,11.9015631,8.75116711,0.200103388,6.660227414
54,665.81,0.13043,12.30883588,9.054765922,0.212578817,6.897138483
55,665.48,0.13127,12.7136494,9.356898242,0.225480764,7.132834775
56,665.15,0.13211,13.11602985,9.65757975,0.238804901,7.36732628
57,664.84,0.13295,13.51598931,9.956815978,0.252546959,7.600627195
58,664.54,0.13378,13.91356768,10.25463258,0.266702715,7.832738629
59,664.25,0.13462,14.3087907,10.55104501,0.281267975,8.063689642
60,663.98,0.13546,14.70168396,10.84606867,0.296238603,8.293486115
61,663.71,0.1363,15.09228685,11.13972892,0.311610509,8.522143626
62,663.46,0.13713,15.48061067,11.43203094,0.327379644,8.749684785
63,663.22,0.13797,15.8666945,11.72299994,0.343542021,8.976106669
64,662.94,0.13881,16.2505633,12.012651,0.360093676,9.201439519
65,645.45,0.13964,16.63217238,12.30094892,0.377030707,9.425688228
66,650.65,0.14045,16.98792921,12.57085361,0.394349252,9.648812341
67,662.13,0.14128,17.34901899,12.84486231,0.412045411,9.851830773
68,661.17,0.14211,17.72415051,13.12926761,0.430088305,10.06785537
69,660.04,0.14295,18.09612224,13.41165848,0.44848281,10.28991433
70,661.26,0.14378,18.46471622,13.69187385,0.46724379,10.50710101
71,661.7,0.14461,18.83320433,13.97227265,0.486366389,10.72384887
72,661.09,0.14545,19.2005073,14.25207444,0.505845496,10.94091952
73,661.08,0.14628,19.56517457,14.53022976,0.525679761,11.15711962
74,661.06,0.14711,19.92805113,14.80734562,0.545866605,11.3717837
75,660.81,0.14795,20.28913184,15.08341587,0.566401802,11.58587117
76,660.65,0.14878,20.6481067,15.35821418,0.5872821,11.79897067
77,660.51,0.14961,21.00511078,15.63183538,0.608504258,12.01100408
78,660.37,0.15045,21.36018141,15.90430388,0.630064688,12.22211108
79,660.21,0.15128,21.71332808,16.17562398,0.651959971,12.43226064
80,660.05,0.15211,22.0645325,16.44577995,0.674186741,12.64147135
81,659.46,0.15294,22.4138042,16.71477614,0.696741654,12.84971859
82,659.64,0.15377,22.76055782,16.98218734,0.71962136,13.05701834
83,659.57,0.15461,23.10587083,17.24878864,0.742822527,13.26289049
84,659.37,0.15544,23.44940448,17.51433334,0.766341167,13.46840301
85,659.18,0.15627,23.79098768,17.77869554,0.790174537,13.67283028
86,659.03,0.1571,24.13064385,18.04188966,0.814319519,13.87633888
87,658.91,0.15793,24.46843772,18.30396001,0.838772808,14.07887549
88,658.79,0.15876,24.80441987,18.56494069,0.863531136,14.28051268
89,658.66,0.15959,25.13859916,18.82483578,0.888591322,14.48125855
90,658.52,0.16042,25.47097058,19.08363932,0.913950253,14.68111485
91,658.38,0.16125,25.80152918,19.34134543,0.939604838,14.88007491
92,658.24,0.16208,26.13028383,19.59795818,0.96555199,15.07813563
93,658.09,0.16291,26.45724336,19.85348166,0.991788627,15.27530356
94,657.95,0.16374,26.78240275,20.10790995,1.018311687,15.47158115
95,657.81,0.16457,27.10578463,20.36125712,1.04511813,15.66696145
96,657.67,0.1654,27.42739769,20.61352718,1.072204921,15.86146371
97,657.53,0.16623,27.74725059,20.86472417,1.099569059,16.05508496
98,657.4,0.16706,28.06535195,21.11485207,1.127207565,16.24783157
99,657.26,0.16789,28.38172414,21.36392483,1.155117481,16.43970596
100,657.13,0.16872,28.69636183,21.61193643,1.183295867,16.63072328
101,657,0.16954,29.00928729,21.85890078,1.21173982,16.82087104
102,656.86,0.17037,29.3205089,22.10482177,1.24044644,17.01017067
103,656.72,0.1712,29.63002122,22.34969335,1.269412864,17.19861807
104,656.6,0.17203,29.93783263,22.59351942,1.298636247,17.38620883
105,656.45,0.17286,30.24397898,22.83632378,1.328113748,17.57294981
106,656.33,0.17368,30.54842713,23.07808041,1.357842546,17.75886523
107,656.18,0.17451,30.85122669,23.31882303,1.387819869,17.94391643
108,656.06,0.17534,31.15234443,23.55852561,1.418042918,18.12815797
109,655.95,0.17617,31.45182987,23.79722183,1.44850896,18.31153836
110,655.87,0.17699,31.74970475,24.03492537,1.479215234,18.4941175
111,655.79,0.17782,32.0460182,24.27166972,1.510159045,18.67588592
112,655.66,0.17865,32.34077784,24.50745844,1.54133773,18.85688552
113,655.54,0.17947,32.63392251,24.74224543,1.572748696,19.03710312
114,655.51,0.1803,32.92547386,24.97604435,1.604389363,19.21649343
115,655.3,0.18113,33.21556339,25.20894821,1.636257091,19.39509139
116,655.15,0.18195,33.50395084,25.44078169,1.668349277,19.57298653
117,655,0.18278,33.79072702,25.67160833,1.700663474,19.74994603
118,654.76,0.1836,34.07589983,25.90143189,1.733196969,19.92613968
119,654.67,0.18443,34.35935356,26.13016688,1.765947163,20.10150058
120,654.48,0.18525,34.6413026,26.3579661,1.798911475,20.27596216
121,654.32,0.18608,34.92161705,26.58473392,1.832087199,20.44972352
122,654.18,0.1869,35.2003461,26.81050392,1.865471887,20.62259444
123,654.02,0.18773,35.47752497,27.03529966,1.899062946,20.79469325
124,653.87,0.18855,35.75313383,27.25910496,1.932857853,20.96599679
125,653.74,0.18938,36.02719409,27.48193342,1.96685413,21.13649731
126,653.61,0.1902,36.29974077,27.7038085,2.001049288,21.30621378
127,653.48,0.19103,36.57078126,27.92473374,2.035440868,21.47516487
128,653.36,0.19185,36.84032294,28.1447127,2.070026463,21.64334715
129,653.23,0.19267,37.10838686,28.36375879,2.10480368,21.81076652
130,653.11,0.1935,37.37496655,28.58186558,2.139770143,21.97743595
131,652.98,0.19432,37.64008297,28.79904649,2.17492351,22.1433433
132,652.86,0.19514,37.90372958,29.01529506,2.210261439,22.30850913
133,652.73,0.19597,38.16592728,29.23062465,2.245781618,22.47291807
134,652.61,0.19679,38.42666946,29.44502881,2.281481738,22.63659198
135,652.5,0.19761,38.68597694,29.65852087,2.317359521,22.79951491
136,652.39,0.19844,38.94387042,29.87111411,2.353412688,22.96170894
137,652.28,0.19926,39.20035682,30.08281187,2.389638995,23.12318002
138,652.18,0.20008,39.45544301,30.29361748,2.426036226,23.28392983
139,652.08,0.2009,39.70914953,30.50354415,2.462602182,23.44396183
140,651.97,0.20173,39.96148311,30.71259513,2.499334679,23.60328973
141,651.87,0.20255,40.2124368,30.92076381,2.536231564,23.76191184
142,651.77,0.20337,40.46203101,31.12806335,2.573290701,23.91982193
143,651.67,0.20419,40.71027239,31.33449698,2.61050995,24.07703775
144,651.57,0.20501,40.95716754,31.54006791,2.647887205,24.23355586
145,651.46,0.20583,41.20272306,31.74477937,2.685420372,24.38938172
146,651.36,0.20666,41.44693182,31.94862466,2.723107374,24.54451704
147,651.26,0.20748,41.68981408,32.1516169,2.760946147,24.69895409
148,651.16,0.2083,41.93137632,32.35375923,2.798934628,24.85271116
149,651.06,0.20912,42.17162498,32.55505484,2.837070782,25.00578449
150,650.96,0.20994,42.4105665,32.75550686,2.87535259,25.1581796
151,650.86,0.21076,42.64820726,32.95511844,2.913778046,25.30989808
152,650.75,0.21158,42.88455363,33.15389269,2.95234516,25.46094319
153,650.65,0.2124,43.11959827,33.35182288,2.991051956,25.61131743
154,650.55,0.21322,43.35336121,33.54892201,3.029896469,25.76101264
155,650.45,0.21404,43.58584872,33.74519316,3.068876736,25.91004716
156,650.35,0.21486,43.81706702,33.94063941,3.107990822,26.05841709
157,650.25,0.21568,44.04702232,34.13526384,3.147236806,26.20612791
158,650.14,0.2165,44.27572079,34.32906949,3.186612782,26.35318112
159,650.04,0.21732,44.50315496,34.52204957,3.226116855,26.49957988
160,649.93,0.21814,44.72934463,34.714217,3.265747146,26.64531565
161,649.82,0.21896,44.95428226,34.90556495,3.305501773,26.79040684
162,649.72,0.21978,45.17797398,35.09609648,3.345378882,26.93483845
163,649.59,0.2206,45.40043951,35.28582447,3.38537662,27.0786206
164,649.49,0.22142,45.62164397,35.4747224,3.425493144,27.22176375
165,649.38,0.22224,45.84163441,35.66282286,3.465726641,27.36423427
166,649.28,0.22306,46.06040314,35.85011898,3.506075265,27.50608311
167,649.17,0.22387,46.27796976,36.03662361,3.54653723,27.64728146
168,649.07,0.22469,46.49432653,36.22232985,3.587110747,27.78785614
169,648.96,0.22551,46.70949299,36.4072505,3.627794055,27.9277885
170,648.85,0.22633,46.92346134,36.59137866,3.668585391,28.06710106
171,648.74,0.22715,47.13623745,36.77471728,3.70948302,28.20577696
172,648.64,0.22797,47.34782715,36.9572693,3.750485205,28.34382696
173,648.53,0.22878,47.55824985,37.13904747,3.791590221,28.48125015
174,648.43,0.2296,47.76749766,37.32004485,3.832796356,28.61806147
175,648.32,0.23042,47.97558993,37.50027417,3.874101924,28.75424722
176,648.21,0.23124,48.18251871,37.67972846,3.915505239,28.88982771
177,648.11,0.23205,48.3882897,37.85841062,3.957004642,29.02478694
178,648,0.23287,48.59292215,38.03633333,3.998598468,29.15913522
179,647.9,0.23369,48.79640804,38.21348961,4.040285068,29.29288267
180,647.8,0.2345,48.99876658,38.38989213,4.082062818,29.42601757
181,647.05,0.23532,49.20000327,38.56554368,4.123930092,29.5585593
182,646.48,0.23614,49.39924123,38.73980986,4.16588529,29.69050313
183,646.01,0.23695,49.59673535,38.91287284,4.207926826,29.82114404
184,645.51,0.23777,49.79263027,39.08483538,4.250052115,29.95098361
185,644.98,0.23858,49.98689363,39.25567256,4.29225887,30.07992516
186,644.4,0.23939,50.17949333,39.42535962,4.334544981,30.20798201
187,643.84,0.2402,50.3703705,39.59385245,4.376908304,30.3351214
188,643.3,0.24102,50.55956124,39.76117548,4.41934667,30.46130841
189,642.76,0.24183,50.74710141,39.92735301,4.461857847,30.58658551
190,642.22,0.24264,50.93299965,40.0923897,4.504439654,30.71096227
191,641.71,0.24345,51.11726458,40.25629022,4.547089956,30.83444028
192,641.2,0.24425,51.29994513,40.41908837,4.589806638,30.9570245
193,640.53,0.24506,51.48104958,40.58078863,4.632587601,31.07875091
194,639.57,0.24587,51.66037121,40.74124023,4.675430808,31.19960972
195,638.61,0.24668,51.83753065,40.90016756,4.718334241,31.31943736
196,637.65,0.24748,52.01254034,41.05757765,4.761295651,31.4379961
197,636.68,0.24828,52.18541271,41.21347752,4.804312361,31.55539486
198,635.72,0.24909,52.35614674,41.3678645,4.847381721,31.67159603
199,634.77,0.24989,52.52476817,41.52075525,4.890501099,31.78661305
200,633.83,0.25069,52.69130252,41.67216631,4.933667876,31.90045932
201,632.83,0.25149,52.85577515,41.82211412,4.976879468,32.01314815
202,631.86,0.25228,53.01811834,41.97054794,5.02013333,32.12469274
203,630.85,0.25308,53.1783843,42.11750358,5.063426956,32.23503142
204,629.84,0.25387,53.33653221,42.26294974,5.10675777,32.3442307
205,628.83,0.25467,53.49257454,42.40689354,5.150123264,32.45222808
206,627.78,0.25546,53.64652368,42.54934208,5.193520893,32.5590584
207,626.74,0.25625,53.79833931,42.69026442,5.236948135,32.66471539
208,625.71,0.25704,53.94804728,42.82967737,5.28040249,32.76916766
209,624.68,0.25783,54.09567325,42.96759763,5.323881422,32.87244773
210,623.66,0.25862,54.24122959,43.10403232,5.367382431,32.97456098
211,622.63,0.2594,54.38474169,43.238998,5.410903057,33.07551355
212,621.6,0.26019,54.52620862,43.37249225,5.454440861,33.17532178
213,620.56,0.26097,54.66564259,43.50452211,5.497993443,33.27397654
214,619.51,0.26175,54.80304271,43.63508523,5.54155841,33.37149002
215,618.35,0.26253,54.93840816,43.76417928,5.58513339,33.46785488
216,617.22,0.26331,55.07160853,43.89170837,5.628716019,33.56307211
217,616.03,0.26409,55.20269601,44.01770836,5.672303939,33.65703483
218,614.88,0.26486,55.33160608,44.14213086,5.715894654,33.74982868
219,613.75,0.26564,55.45840387,44.26502112,5.759485733,33.84136404
220,612.63,0.26641,55.5831282,44.38640538,5.80307468,33.93172967
221,611.54,0.26718,55.7058047,44.50630043,5.846659084,34.02091784
222,610.47,0.26795,55.82648443,44.62474147,5.890236584,34.10895096
223,609.42,0.26872,55.94520523,44.74175415,5.933804859,34.19585924
224,608.38,0.26949,56.06200459,44.85736397,5.977361653,34.28165897
225,607.44,0.27026,56.17690695,44.97158698,6.020904762,34.36637209
226,606.51,0.27102,56.29005119,45.08452195,6.064432031,34.45000765
227,605.69,0.27179,56.40146044,45.19618415,6.107941343,34.53267232
228,604.88,0.27255,56.51128466,45.30668049,6.151430744,34.61433844
229,604.06,0.27331,56.61954568,45.41602547,6.194898315,34.69513722
230,603.35,0.27407,56.72623982,45.52421518,6.238342317,34.77502971
231,602.64,0.27483,56.83151528,45.63135542,6.281761039,34.85402829
232,601.93,0.27559,56.93538003,45.73745083,6.325152772,34.93224603
233,601.22,0.27635,57.03784201,45.84250604,6.368515986,35.00964059
234,600.51,0.27711,57.1389091,45.94652567,6.411849161,35.08623528
235,599.81,0.27787,57.23858915,46.04951431,6.455150795,35.16202568
236,599.1,0.27862,57.33690257,46.15148562,6.498419397,35.23701905
237,598.49,0.27938,57.43384447,46.25243504,6.541653493,35.31122783
238,597.87,0.28013,57.52954809,46.35245774,6.584851635,35.38464195
239,597.36,0.28089,57.62400769,46.45154865,6.628012376,35.45737202
240,596.84,0.28164,57.71736793,46.5498113,6.671134426,35.52936589
241,596.3,0.28239,57.80962219,46.64724011,6.714216493,35.60076123
242,595.88,0.28314,57.90075141,46.74382051,6.757257455,35.67149385
243,595.43,0.28389,57.99091163,46.83966436,6.800256185,35.74157479
244,594.96,0.28464,58.08007046,46.9347476,6.843211542,35.81112433
245,594.49,0.28539,58.16820827,47.02905534,6.886122563,35.88006497
246,594.01,0.28614,58.25533049,47.12259077,6.928988254,35.94841298
247,593.52,0.28689,58.34143008,47.21534809,6.971807601,36.01616526
248,593.03,0.28764,58.42650005,47.30732155,7.0145796,36.08331683
249,592.54,0.28839,58.51054593,47.3985144,7.057303242,36.14986356
250,592.06,0.28914,58.59357321,47.48892991,7.099977514,36.21581099
251,591.58,0.28988,58.67559977,47.57858028,7.142601413,36.2811606
252,591.09,0.29063,58.75663098,47.66746869,7.185173945,36.34592553
253,590.6,0.29137,58.83665976,47.75558935,7.22769414,36.41010396
254,590.12,0.29212,58.91569151,47.84294547,7.270161038,36.47369036
255,589.63,0.29286,58.99374396,47.92954919,7.312573673,36.53669081
256,589.15,0.2936,59.07081001,48.0153947,7.354931091,36.59911643
257,588.66,0.29435,59.14690731,48.1004941,7.397232359,36.66095622
258,588.17,0.29509,59.22202873,48.18484158,7.43947654,36.72222847
259,587.68,0.29583,59.29617953,48.26844029,7.481662721,36.78291913
260,587.19,0.29657,59.36936493,48.35129336,7.523789982,36.84303781
261,586.69,0.29731,59.44159015,48.43340393,7.565857416,36.90258409
262,586.19,0.29805,59.51284806,48.5147662,7.607864121,36.96156178
263,585.69,0.29879,59.58314391,48.59538334,7.649809206,37.01996299
264,585.18,0.29953,59.6524829,48.67525848,7.691691775,37.07779472
265,584.66,0.30026,59.72085795,48.75438588,7.733510941,37.13505765
266,584.15,0.301,59.78826204,48.83275984,7.775265826,37.19174525
267,583.62,0.30174,59.85471272,48.91039243,7.816955546,37.24785408
268,583.09,0.30247,59.9201907,48.98726908,7.858579213,37.30339917
269,582.55,0.30321,59.98470132,49.06339304,7.900135963,37.35835812
270,582.02,0.30394,60.04823765,49.13875868,7.941624909,37.41274412
271,581.48,0.30468,60.11081727,49.21337808,7.983045179,37.4665455
272,580.94,0.30541,60.17243322,49.2872456,8.024395891,37.51978078
273,580.4,0.30614,60.23309082,49.36036448,8.065676189,37.57243602
274,579.88,0.30687,60.29279535,49.43273793,8.106885211,37.62452084
275,579.36,0.3076,60.35157637,49.5043867,8.148022103,37.67603491
276,578.85,0.30833,60.40943897,49.5753139,8.189086023,37.72700165
277,578.34,0.30906,60.46640031,49.64553137,8.230076163,37.77741474
278,577.79,0.30979,60.52246534,49.71504212,8.270991724,37.82729019
279,577.25,0.31052,60.5775905,49.78381417,8.311831931,37.87662473
280,576.71,0.31125,60.63179312,49.85185945,8.352596015,37.92538418
281,576.17,0.31197,60.68507828,49.91918109,8.393283162,37.97359644
282,575.62,0.3127,60.73745109,49.98578221,8.43389258,38.02125335
283,575.08,0.31343,60.78890453,50.05165721,8.474423484,38.06836195
284,574.53,0.31415,60.83945576,50.11681794,8.514875099,38.11491314
285,573.98,0.31487,60.88909775,50.18125877,8.555246644,38.16092411
286,573.43,0.3156,60.93783556,50.24498285,8.595537362,38.20638145
287,572.92,0.31632,60.98567423,50.30799326,8.635746488,38.25129444
288,572.41,0.31704,61.03266684,50.37032783,8.675873268,38.29566275
289,571.91,0.31776,61.07881805,50.43198943,8.715916953,38.33952879
290,571.41,0.31848,61.12414449,50.49298962,8.755876862,38.38287795
291,570.9,0.3192,61.16865071,50.55333122,8.795752316,38.42572938
292,570.43,0.31992,61.21232927,50.61300841,8.835542663,38.46807825
293,569.96,0.32064,61.25523257,50.67205858,8.875247254,38.50992019
294,569.48,0.32136,61.29736487,50.7304844,8.914865438,38.55129884
295,568.99,0.32208,61.33871843,50.78827987,8.954396621,38.59219882
296,568.51,0.3228,61.37928562,50.84543908,8.993840221,38.63262004
297,568.02,0.32351,61.41908267,50.90197334,9.033195646,38.672556
298,567.53,0.32423,61.45810193,50.95787672,9.072462298,38.71202217
299,567.05,0.32494,61.49634767,51.01315191,9.111639601,38.75100548
300,566.56,0.32566,61.53383607,51.06781019,9.15072697,38.78951454
301,566.09,0.32637,61.57055942,51.12184562,9.189723828,38.82755838
302,565.63,0.32709,61.60654568,51.175278,9.228629619,38.86512663
303,565.17,0.3278,61.64181078,51.22811847,9.26744378,38.90224583
