simulation time [sec],battery current [A],battery soc [%],Socket,Crimp,Coolant,Overmold
0,0,0.3,0,0,0,0
1,-6.6854,0.3,0,0,0,0
2,-18.499,0.30001,4.69E-05,3.38E-05,0,0
3,-45.483,0.30005,0.000405431,0.000292819,0,3.77E-05
4,-73.101,0.30012,0.002572423,0.001858039,5.36E-08,0.000310525
5,-100.76,0.30023,0.00816264,0.00589715,5.17E-07,0.001940285
6,-128.43,0.30038,0.018767509,0.013562276,3.46E-06,0.005754252
7,-155.75,0.30056,0.035969754,0.026000597,1.28E-05,0.012686171
8,-183.15,0.30077,0.061228266,0.044271189,3.42E-05,0.023618999
9,-210.32,0.30102,0.096099622,0.069504884,7.53E-05,0.039358522
10,-237.25,0.3013,0.142009785,0.102739487,0.000145136,0.060822832
11,-263.95,0.30161,0.200333485,0.144976978,0.000254672,0.088778507
12,-290.4,0.30196,0.272403628,0.197190265,0.000416406,0.12401585
13,-316.62,0.30235,0.359495813,0.260311964,0.000644376,0.167282471
14,-342.61,0.30276,0.462851108,0.335250786,0.0009541,0.219298789
15,-368.36,0.30321,0.583666592,0.422884685,0.001362501,0.280769797
16,-393.88,0.30369,0.723088184,0.52405563,0.00188787,0.352372444
17,-419.17,0.3042,0.882225603,0.639580364,0.002549802,0.434755158
18,-444.23,0.30475,1.062146236,0.770245943,0.003369139,0.528550052
19,-469.06,0.30532,1.263875675,0.916810085,0.004367923,0.634362804
20,-493.67,0.30593,1.488398259,1.08000152,0.005569343,0.752777332
21,-518.05,0.30657,1.736667954,1.260527813,0.006997683,0.884354219
22,-542.22,0.30723,2.009589157,1.459061469,0.008678271,1.029640112
23,-566.18,0.30793,2.308049321,1.676263452,0.01063744,1.189148267
24,-575.53,0.30866,2.632899646,1.912769221,0.01290247,1.363393001
25,-562.94,0.30937,2.967359507,2.156482183,0.015501562,1.552859576
26,-562.05,0.31008,3.285161678,2.388440788,0.018463798,1.743849623
27,-563.7,0.31079,3.600365588,2.618782841,0.021798959,1.921008945
28,-558.54,0.3115,3.915981176,2.84967879,0.025486716,2.102139219
29,-552.27,0.31219,4.223987507,3.07533577,0.029522864,2.28214364
30,-546.99,0.31289,4.523190733,3.29488427,0.033906672,2.456711018
31,-541.74,0.31357,4.814850689,3.509225702,0.038628241,2.626697886
32,-539.06,0.31426,5.099096669,3.718446162,0.043676328,2.792751272
33,-536.7,0.31494,5.378920726,3.924699208,0.049041167,2.954695463
34,-532.73,0.31561,5.654719496,4.12826669,0.054713179,3.115007631
35,-528.72,0.31628,5.924723024,4.327866222,0.060686237,3.27295649
36,-524.97,0.31694,6.188948248,4.52350433,0.066954697,3.42742158
37,-521.45,0.3176,6.447743185,4.715426662,0.073510907,3.578885606
38,-518.11,0.31826,6.701415219,4.903849838,0.080347259,3.727420482
39,-514.91,0.31891,6.950210821,5.088946768,0.08745657,3.873238681
40,-511.85,0.31956,7.194328283,5.270855801,0.094832033,4.016444613
41,-508.93,0.3202,7.433962118,5.44971274,0.102467148,4.157149706
42,-506.15,0.32084,7.669303193,5.625650937,0.110355663,4.295459569
43,-503.51,0.32148,7.900538874,5.798801395,0.118491571,4.431479487
44,-501.38,0.32211,8.127853165,5.969292864,0.126869104,4.565312213
45,-499.31,0.32274,8.35181571,6.13753275,0.13548273,4.697059009
46,-497.3,0.32337,8.572515171,6.303581619,0.144327145,4.82713241
47,-495.36,0.324,8.790038998,6.46749925,0.153397716,4.95542655
48,-493.53,0.32462,9.004483841,6.629352151,0.162689927,5.082053631
49,-491.81,0.32524,9.215986422,6.789235864,0.172199379,5.207041368
50,-490.2,0.32586,9.424681529,6.947244659,0.1819218,5.330485442
51,-488.73,0.32648,9.630702102,7.103471599,0.191853085,5.452451391
52,-487.42,0.32709,9.834210066,7.2580308,0.201989302,5.573016085
53,-486.22,0.32771,10.0353857,7.411049782,0.212326682,5.692275053
54,-485.14,0.32832,10.23435611,7.562617825,0.222861656,5.810330839
55,-484.17,0.32893,10.43125712,7.712830625,0.233590873,5.927240332
56,-483.3,0.32954,10.62621293,7.861775604,0.24451114,6.043086835
57,-482.51,0.33015,10.81933632,8.009532058,0.255619428,6.157933245
58,-481.76,0.33076,11.01071874,8.156163978,0.266912864,6.27184198
59,-481.04,0.33136,11.2004104,8.301705651,0.278388712,6.384858575
60,-480.36,0.33197,11.38845097,8.446183816,0.290044351,6.497002559
61,-479.74,0.33257,11.57488987,8.58963229,0.301877226,6.608296026
62,-479.17,0.33318,11.75979623,8.732099168,0.313884837,6.718767875
63,-478.65,0.33378,11.94322857,8.873624943,0.326064749,6.828460037
64,-478.17,0.33439,12.12524492,9.014249829,0.338414614,6.937400436
65,-477.73,0.33499,12.30589287,9.154006532,0.350932159,7.045622583
66,-477.33,0.33559,12.48521962,9.292927549,0.363615187,7.153149249
67,-476.9,0.33619,12.66327206,9.431045179,0.37646156,7.260007493
68,-476.51,0.33679,12.84002674,9.56834097,0.389469205,7.366222331
69,-476.16,0.33739,13.01553032,9.704847106,0.402636106,7.471763047
70,-476.28,0.338,13.18982917,9.84059558,0.415960231,7.576678937
71,-476.17,0.3386,13.36339857,9.975928191,0.429439606,7.680985278
72,-476.15,0.3392,13.53601241,10.11068062,0.443072318,7.7850571
73,-476.09,0.3398,13.70776522,10.24491991,0.456857002,7.888552989
74,-475.99,0.3404,13.87862126,10.37861912,0.470792044,7.991692209
75,-475.88,0.341,14.04854497,10.51175144,0.484875939,8.094352515
76,-475.75,0.3416,14.21753095,10.64431176,0.499107148,8.196555914
77,-475.62,0.3422,14.38556384,10.77628781,0.513484099,8.298287814
78,-475.48,0.3428,14.55264831,10.90768178,0.528005215,8.399541034
79,-475.33,0.3434,14.71877905,11.03848865,0.54266891,8.500321399
80,-475.17,0.34399,14.88395079,11.16870342,0.557473607,8.600621195
81,-475,0.34459,15.04815827,11.29832113,0.572417729,8.700438452
82,-474.84,0.34519,15.2113963,11.42733683,0.587499699,8.799768807
83,-474.68,0.34579,15.3736796,11.55575998,0.602717939,8.898608934
84,-474.51,0.34639,15.53501289,11.68359281,0.618070868,8.99697113
85,-474.33,0.34699,15.6953909,11.81083036,0.633556932,9.094853025
86,-474.15,0.34759,15.8548084,11.9374677,0.649174585,9.192250418
87,-474,0.34818,16.01327013,12.06350709,0.664922279,9.289159915
88,-473.89,0.34878,16.17081064,12.18897234,0.680798468,9.385585818
89,-473.79,0.34938,16.32747421,12.31389429,0.696801616,9.481553169
90,-473.7,0.34998,16.48327508,12.43828217,0.71293023,9.577086115
91,-473.62,0.35057,16.63822739,12.56214512,0.729182875,9.672185013
92,-473.56,0.35117,16.79234524,12.68549228,0.745558138,9.766860226
93,-473.55,0.35177,16.94565257,12.80833991,0.762054623,9.861117851
94,-473.67,0.35236,17.09820297,12.93072571,0.778670959,9.954973731
95,-474.44,0.35296,17.25012925,13.05274463,0.795405806,10.0484635
96,-445.02,0.35354,17.40208069,13.17486471,0.812257889,10.14167822
97,-493.67,0.35413,17.52493018,13.27605172,0.82922609,10.23510149
98,-450.57,0.35474,17.6950617,13.41144089,0.846310038,10.30507665
99,-475.84,0.35531,17.82169506,13.51551574,0.863476038,10.42308193
100,-475.17,0.35593,17.97225641,13.63693042,0.880777868,10.48585836
101,-456.86,0.3565,18.1214161,13.75741332,0.898165355,10.59127687
102,-493.58,0.35711,18.25195642,13.86452931,0.915665524,10.67763556
103,-446.45,0.35769,18.41845233,13.99767327,0.933276416,10.75711053
104,-493.74,0.35828,18.53768613,14.09678031,0.950976345,10.86850698
105,-452.54,0.35889,18.70295545,14.22918433,0.96880612,10.92844201
106,-475.04,0.35946,18.8265432,14.3315798,0.986711266,11.04722667
107,-482.02,0.36008,18.97141085,14.44939829,1.004744134,11.10767793
108,-452.48,0.36066,19.12257668,14.57183867,1.022856655,11.20994346
109,-498.36,0.36126,19.24406288,14.67292487,1.041072849,11.29969422
110,-445.83,0.36186,19.41069603,14.80666697,1.059399593,11.37089008
111,-488.57,0.36244,19.52451508,14.90236109,1.077802558,11.48633007
112,-468.74,0.36306,19.67965139,15.0279385,1.096333097,11.5406335
113,-457.65,0.36363,19.81412826,15.13867797,1.114930404,11.65406662
114,-500.35,0.36424,19.9371783,15.24122896,1.133641454,11.72596914
115,-445.48,0.36483,20.102518,15.37437255,1.152442272,11.80625665
116,-493.26,0.36542,20.21263906,15.46772942,1.171319448,11.91711315
117,-465.88,0.36604,20.36925044,15.5947009,1.190321092,11.97066456
118,-462.2,0.36661,20.49756467,15.70131895,1.209383652,12.08589299
119,-499.01,0.36723,20.62167282,15.80495651,1.228560039,12.15236329
120,-447.21,0.36782,20.78227326,15.93499985,1.247817546,12.23608068
121,-496.89,0.36841,20.89070141,16.02745115,1.267151044,12.34195637
122,-459.83,0.36903,21.04777737,16.15507249,1.286602021,12.3965267
123,-471.74,0.3696,21.16691349,16.25537621,1.306110426,12.51197652
124,-492.01,0.37022,21.29710185,16.3637092,1.325731656,12.5712385
125,-452.29,0.3708,21.44713789,16.48643221,1.345421976,12.66316578
126,-499.72,0.37141,21.55711741,16.58030242,1.365193745,12.75733983
127,-452.62,0.37201,21.71390335,16.70801312,1.385069407,12.8183646
128,-485.86,0.37259,21.82289615,16.80128936,1.405002799,12.93112064
129,-472.55,0.37321,21.96406488,16.91783952,1.425047225,12.98361374
130,-463.73,0.37379,22.09117106,17.02429989,1.445147682,13.08749765
131,-496.28,0.37441,22.20899968,17.12411377,1.465340728,13.15841971
132,-450.19,0.37499,22.35901702,17.24721769,1.485609998,13.23583042
133,-497.39,0.37559,22.46256634,17.33683732,1.505944596,13.33646866
134,-455.64,0.3762,22.6125046,17.45998907,1.526381115,13.38993687
135,-477.4,0.37678,22.71999484,17.55255908,1.54686608,13.50071219
136,-485.18,0.3774,22.8482483,17.66015872,1.56745234,13.55317093
137,-453.55,0.37798,22.98372868,17.77303029,1.588091041,13.64700456
138,-499.03,0.37858,23.08741782,17.86300302,1.608805702,13.72923972
139,-447.87,0.37918,23.23602482,17.98544472,1.629604359,13.79081625
140,-487.41,0.37976,23.33311642,18.07075469,1.650450358,13.89732333
141,-472.83,0.38038,23.46850827,18.18374881,1.671394889,13.94343222
142,-457.03,0.38096,23.58856157,18.28572451,1.692378729,14.04591231
143,-499.34,0.38157,23.69262606,18.37619902,1.713445498,14.1122924
144,-444.73,0.38216,23.83860866,18.49697574,1.734577411,14.18107504
145,-491.94,0.38274,23.92982557,18.57827045,1.75575593,14.28263541
146,-466.87,0.38336,24.06696142,18.69274531,1.777028835,14.32630549
147,-456.14,0.38393,24.1782267,18.78859677,1.798333197,14.43142081
148,-501.59,0.38454,24.27856592,18.87659483,1.819721373,14.48981137
149,-441.83,0.38514,24.42405478,18.99722475,1.841163537,14.55916228
150,-488.62,0.38571,24.50972345,19.07472143,1.862646966,14.66027673
151,-474.83,0.38634,24.64062051,19.18489409,1.884223164,14.69985567
152,-447.79,0.3869,24.75694986,19.28459962,1.905823428,14.80186017
153,-504.46,0.38751,24.84655561,19.36504722,1.927499344,14.86582254
154,-446.17,0.38812,24.99230424,19.48605554,1.949234044,14.92435882
155,-479.17,0.38869,25.07924482,19.56466105,1.97099673,15.03042381
156,-487.86,0.38931,25.197778,19.66609592,1.992851509,15.06911116
157,-448.92,0.38989,25.32454441,19.77351803,2.014730851,15.16170855
158,-503.37,0.39049,25.41244695,19.85292335,2.036670742,15.2382139
159,-449.36,0.3911,25.55428648,19.97129432,2.058680436,15.29025165
160,-482.71,0.39167,25.641484,20.05026694,2.080715236,15.39607946
161,-480.52,0.3923,25.76084775,20.15248271,2.102836718,15.43524149
162,-454.63,0.39287,25.87741818,20.25272302,2.124982136,15.52847188
163,-503.76,0.39348,25.96803616,20.33426113,2.14718814,15.59666493
164,-447.31,0.39408,26.1075804,20.45114807,2.169451366,15.65455879
165,-491.99,0.39467,26.19015472,20.52695301,2.191741921,15.75622507
166,-466.61,0.39529,26.31632868,20.63425311,2.214115657,15.79357748
167,-464.3,0.39586,26.41637942,20.72273537,2.236507169,15.89320991
168,-500.41,0.39648,26.51368804,20.80926199,2.258966206,15.94555366
169,-447.76,0.39707,26.64704657,20.92184397,2.281462705,16.01567493
170,-500.24,0.39766,26.72741464,20.99621184,2.303993365,16.10734771
171,-453.58,0.39828,26.85955343,21.10797312,2.326599311,16.14728648
172,-474.74,0.39885,26.94438611,21.18562396,2.349219703,16.25077395
173,-494.61,0.39948,27.04940073,21.27786016,2.371913656,16.28938
174,-447.56,0.40006,27.17409818,21.38433831,2.394626858,16.37164449
175,-503.45,0.40066,27.25171044,21.45685893,2.417382274,16.45135598
176,-450.57,0.40127,27.3846726,21.56935478,2.440202305,16.49425907
177,-477.27,0.40184,27.46409323,21.6432375,2.463032881,16.5972913
178,-491.94,0.40247,27.5691009,21.73560373,2.485937234,16.63186137
179,-444.84,0.40304,27.68850434,21.83839341,2.508853923,16.71595214
180,-504.57,0.40364,27.76106518,21.90739576,2.53181211,16.79075635
181,-450.65,0.40426,27.8927292,22.01907898,2.554828158,16.83178688
182,-470.31,0.40482,27.96974991,22.09135188,2.577848292,16.9346845
183,-501.53,0.40545,28.06537896,22.17706618,2.600940059,16.9674959
184,-442.84,0.40603,28.19235342,22.28543561,2.62404077,17.04489264
185,-501.32,0.40662,28.26059785,22.35143927,2.647171614,17.12872938
186,-459.33,0.40725,28.3864003,22.4590039,2.670368375,17.16258154
187,-462.62,0.40781,28.46929704,22.53562904,2.693563672,17.26389852
188,-505.98,0.40844,28.5549701,22.61426717,2.716823288,17.30221569
189,-443.27,0.40903,28.68425974,22.72441313,2.740097987,17.36937772
190,-496.69,0.40961,28.75050684,22.78908064,2.763390837,17.45950226
191,-465.17,0.41024,28.86907747,22.89152698,2.786751684,17.48919429
192,-459.47,0.41081,28.95528312,22.97063924,2.81010822,17.58654417
193,-506.4,0.41143,29.03554284,23.04546823,2.833520244,17.62929807
194,-442.79,0.41202,29.16293669,23.15434027,2.856950604,17.69032431
195,-494,0.4126,29.22640551,23.21709462,2.880392391,17.78160614
196,-468.85,0.41323,29.3398632,23.31593914,2.903899486,17.80866496
197,-455.99,0.4138,29.42737872,23.39608312,2.927398587,17.90309882
198,-506.82,0.41441,29.50199795,23.46692545,2.950946832,17.9482251
199,-442.58,0.41501,29.62756517,23.57455989,2.974514437,18.00379328
200,-490.87,0.41559,29.68857514,23.63561824,2.998086545,18.09599091
201,-472.09,0.41622,29.79654885,23.73057983,3.021721416,18.12076409
202,-452.64,0.41678,29.88503558,23.81149749,3.045345038,18.21182521
203,-506.66,0.41739,29.95423342,23.87849772,3.069011099,18.25923267
204,-441.04,0.41799,30.07742711,23.98448617,3.092697219,18.30954634
205,-486.35,0.41857,30.1348184,24.0429971,3.116381232,18.40212203
206,-477.68,0.41919,30.23598667,24.13310667,3.140124902,18.42389114
207,-448.98,0.41976,30.32789876,24.21655443,3.163852805,18.51080682
208,-505.95,0.42037,30.39147889,24.27955704,3.187614998,18.56278486
209,-441.53,0.42097,30.51178829,24.38351683,3.211400828,18.60670701
210,-482.24,0.42154,30.56751657,24.4408784,3.235177787,18.69971746
211,-481.79,0.42217,30.66240267,24.52650131,3.259010776,18.72002153
212,-444.97,0.42273,30.75637159,24.61147887,3.282825784,18.80255199
213,-504.94,0.42334,30.8141055,24.67030571,3.306667592,18.85808927
214,-441.36,0.42394,30.93128516,24.77204632,3.33053511,18.89585228
215,-477.2,0.42451,30.98481207,24.82785632,3.354386789,18.98899073
216,-486.55,0.42513,31.07259495,24.90838581,3.378290653,19.00751443
217,-445.39,0.4257,31.1693979,24.99543992,3.402173769,19.08512023
218,-503.66,0.4263,31.22551141,25.05312888,3.426075322,19.1450583
219,-443.23,0.42691,31.33933292,25.15247519,3.450005612,19.17969745
220,-483.49,0.42748,31.39260597,25.20812969,3.473917997,19.27148822
221,-467.56,0.4281,31.48473748,25.29182702,3.497878514,19.29041333
222,-458.99,0.42867,31.56053557,25.36374371,3.521817794,19.37138611
223,-498.26,0.42928,31.62763894,25.42938211,3.545780292,19.41302651
224,-446.48,0.42987,31.73382849,25.52323951,3.569747291,19.46426879
225,-498.16,0.43046,31.78821105,25.57971114,3.593708806,19.54293496
226,-448.68,0.43106,31.89351374,25.67293673,3.617709565,19.56831893
227,-488.15,0.43165,31.94918304,25.73034543,3.64169021,19.65719745
228,-457.6,0.43226,32.04334991,25.81553828,3.665709001,19.67932224
229,-478.1,0.43284,32.10676496,25.87853996,3.689709087,19.7606203
230,-467.33,0.43345,32.18998255,25.95583188,3.713734513,19.79219067
231,-472.79,0.43403,32.26211888,26.02512831,3.737750059,19.86069327
232,-472.39,0.43464,32.33928556,26.09805472,3.761778374,19.90469161
233,-474.9,0.43523,32.41567984,26.17042499,3.785806763,19.9630826
234,-476.39,0.43584,32.49419484,26.24432767,3.809840967,20.01478172
235,-482.5,0.43644,32.57381339,26.31903003,3.833880087,20.0710142
236,-480.64,0.43705,32.65918677,26.39789188,3.857926533,20.12622633
237,-483.74,0.43766,32.7422659,26.47510549,3.881981545,20.18650686
238,-482.17,0.43827,32.82807471,26.55429688,3.906051679,20.24280787
239,-483.29,0.43888,32.91187543,26.63204699,3.930134266,20.30299437
240,-482.42,0.43948,32.99640155,26.71032806,3.954232383,20.35993303
241,-482.35,0.44009,33.07963494,26.78768328,3.978343683,20.41883509
242,-482.1,0.4407,33.16239196,26.86470109,4.002468948,20.47587637
243,-481.68,0.44131,33.24449294,26.9412513,4.026606652,20.53332748
244,-481.41,0.44192,33.32576949,27.01721172,4.050756206,20.5900852
245,-481.11,0.44252,33.40637737,27.09269412,4.074916817,20.64647885
246,-480.73,0.44313,33.48628974,27.16767854,4.099087503,20.70249449
247,-480.35,0.44373,33.56542952,27.24210871,4.123267463,20.75811576
248,-480.34,0.44434,33.64380079,27.31598691,4.14745587,20.81328702
249,-480.39,0.44495,33.72178011,27.3895844,4.171651808,20.86803449
250,-480.34,0.44555,33.79942985,27.46294589,4.195854373,20.92264976
251,-480.32,0.44616,33.87665087,27.5359995,4.220063091,20.9770595
252,-480.26,0.44676,33.95347548,27.60876819,4.244277564,21.03121454
253,-480.21,0.44737,34.02986534,27.68122393,4.268497281,21.08516137
254,-480.14,0.44797,34.10583264,27.75337515,4.29272177,21.13884919
255,-480.07,0.44858,34.1813593,27.82520844,4.316950516,21.19230896
256,-479.99,0.44918,34.25644749,27.896725,4.341183022,21.24551276
257,-479.91,0.44979,34.33108928,27.96791872,4.365418769,21.29847379
258,-479.83,0.4504,34.40528687,28.03879081,4.389657243,21.35117978
259,-479.75,0.451,34.47904242,28.10934247,4.413897925,21.40363735
260,-479.66,0.45161,34.55235812,28.1795749,4.438140298,21.45584515
261,-479.56,0.45221,34.62522605,28.24948203,4.46238385,21.50780517
262,-479.47,0.45281,34.69763836,28.31905781,4.486628072,21.5595099
263,-479.37,0.45342,34.76960734,28.38831074,4.510872449,21.61095586
264,-479.26,0.45402,34.84112512,28.45723477,4.53511646,21.6621541
265,-479.15,0.45463,34.91218388,28.52582387,4.559359597,21.71309331
266,-479.02,0.45523,34.98278586,28.5940793,4.583601347,21.76377162
267,-478.88,0.45584,35.05291323,28.66198782,4.607841189,21.81419134
268,-478.74,0.45644,35.12255831,28.72954347,4.632078606,21.86433681
269,-478.58,0.45704,35.19172347,28.79674759,4.656313062,21.91420811
270,-478.42,0.45765,35.26039103,28.86358702,4.680544016,21.96380681
271,-478.25,0.45825,35.32856346,28.93006314,4.704770929,22.01311767
272,-478.09,0.45885,35.39623321,28.9961701,4.728993246,22.06214878
273,-477.91,0.45946,35.4634128,29.06191655,4.753210416,22.11089029
274,-477.75,0.46006,35.53008464,29.12728938,4.777421879,22.15935612
275,-477.65,0.46066,35.59627131,29.1923045,4.801627095,22.20752587
276,-477.53,0.46126,35.66203531,29.25700667,4.825825503,22.25542599
277,-477.41,0.46186,35.72735869,29.32138259,4.850016571,22.30309532
278,-477.29,0.46247,35.79224365,29.38543349,4.874199839,22.35050269
279,-477.16,0.46307,35.85669233,29.4491606,4.89837483,22.39766272
280,-477.03,0.46367,35.92069689,29.51255792,4.922541071,22.4445707
281,-476.9,0.46427,35.98425953,29.57562668,4.946698091,22.49122199
282,-476.75,0.46487,36.04738245,29.63836814,4.970845413,22.53762004
283,-476.6,0.46547,36.11004781,29.70076908,4.994982565,22.58376486
284,-476.45,0.46607,36.1722579,29.76283081,5.019109077,22.62964181
285,-476.28,0.46667,36.23401499,29.82455461,5.043224463,22.6752586
286,-476.12,0.46728,36.29530135,29.88592734,5.067328239,22.72061351
287,-475.94,0.46788,36.35612933,29.94695756,5.091419925,22.7656927
288,-475.77,0.46848,36.41648124,30.00763216,5.115499025,22.81051164
289,-475.59,0.46908,36.47636946,30.0679597,5.139565056,22.85504927
290,-475.41,0.46967,36.53578632,30.12793431,5.163617519,22.89932414
291,-475.22,0.47027,36.5947342,30.18755736,5.187655928,22.94332194
292,-475.03,0.47087,36.65320548,30.24682298,5.211679791,22.98705032
293,-474.84,0.47147,36.71120256,30.30573257,5.235688623,23.03049963
294,-474.64,0.47207,36.76872783,30.36428749,5.259681928,23.07367555
295,-474.44,0.47267,36.8257737,30.42248192,5.283659216,23.11657731
296,-474.19,0.47327,36.8823426,30.48031726,5.307620003,23.15919884
297,-473.94,0.47386,36.93838722,30.53775899,5.331563795,23.20154434
298,-473.68,0.47446,36.99391024,30.59480866,5.355490105,23.24357364
